time,theta,theta_dot
0.0,1.0471975511965976,0.0
0.010005002501250625,1.0467641232376426,-0.08663863417595362
0.02001000500250125,1.0454640982272299,-0.17323353059132007
0.030015007503751877,1.0432981735292235,-0.25974093838138207
0.0400200100050025,1.0402673462468763,-0.346117811303828
0.05002501250625312,1.0363730912292426,-0.4323200568337121
0.060030015007503754,1.031617368693975,-0.5183024690563893
0.07003501750875438,1.0260026242273237,-0.6040187286675144
0.080040020010005,1.019531788784137,-0.6894214029730431
0.09004502251125562,1.0122082786878612,-0.774461945889231
0.10005002501250625,1.0040359956305402,-0.8590906979426342
0.11005502751375687,0.9950193266728157,-0.9432568862701093
0.12006003001500751,0.9851631442439273,-1.0269086246188133
0.13006503251625812,0.9744730531292549,-1.1099955688773857
0.14007003501750875,0.9629587744858829,-1.1925045355828257
0.15007503751875936,0.9506268215719593,-1.2743784727018221
0.16008004002001,0.9374828038218905,-1.3555412625335226
0.17008504252126064,0.9235331817900394,-1.435916705348594
0.18009004502251125,0.9087852671507249,-1.5154285193892234
0.19009504752376188,0.8932472226982227,-1.59400034086912
0.2001000500250125,0.8769280623467648,-1.671555723973511
0.21010505252626313,0.8598376511305393,-1.748018140859147
0.22011005502751374,0.8419867052036915,-1.8233109816542958
0.23011505752876438,0.823386791840322,-1.8973575544587487
0.24012006003001501,0.804050329434489,-1.9700810853438149
0.25012506253126565,0.783990587500206,-2.0414047183523256
0.26013006503251623,0.763221686671444,-2.1112515154986315
0.27013506753376687,0.7417585987021293,-2.179544456768605
0.2801400700350175,0.7196171464661454,-2.2462064401196375
0.29014507253626814,0.6968140039573321,-2.311160281480642
0.3001500750375187,0.6733666962894855,-2.3743287147520498
0.31015507753876936,0.6492935996963578,-2.435634391805817
0.32016008004002,0.6246139415316581,-2.4949998824854154
0.33016508254127064,0.5993478002690518,-2.5523476746058398
0.3401700850425213,0.5735161055021603,-2.607600173953605
0.35017508754377186,0.5471406379445622,-2.660679704286745
0.3601800900450225,0.520244029429792,-2.711508507334817
0.37018509254627313,0.49284976291134036,-2.7600087427988953
0.38019009504752377,0.46498217246265483,-2.806102488351577
0.39019509754877435,0.4366664432771392,-2.84971173963698
0.400200100050025,0.407928611668154,-2.89075841027074
0.4102051025512756,0.378795565069015,-2.929164331840016
0.42021010505252626,0.34929504203299644,-2.9648512539034844
0.4302151075537769,0.3194556322333264,-2.9977408439913455
0.4402201100550275,0.28930677646319203,-3.0277546876053174
0.4502251125562781,0.2588733471143765,-3.0548569099807765
0.46023011505752875,0.2281785202065852,-3.0790489253125215
0.4702351175587794,0.19725493942868821,-3.10027536928234
0.48024012006003003,0.16613514984062008,-3.1184864166666513
0.4902451225612806,0.13485146581550364,-3.133638730057115
0.5002501250625313,0.10343597103964935,-3.1456954598606344
0.5102551275637819,0.07192051851255718,-3.1546262442993522
0.5202601300650325,0.04033673054691403,-3.1604072094106552
0.5302651325662832,0.00871599876859519,-3.1630209690471713
0.5402701350675337,-0.022910515883334814,-3.1624566248767705
0.5502751375687843,-0.05451188315662431,-3.158709766382564
0.560280140070035,-0.0860574034858334,-3.151782470862906
0.5702851425712856,-0.11751660799233271,-3.1416833034313916
0.5802901450725363,-0.14885925848430653,-3.128427317016858
0.5902951475737869,-0.18005534745674906,-3.1120360523633854
0.6003001500750375,-0.21107509809146763,-3.0925375380302946
0.6103051525762881,-0.24188896425708128,-3.069966290392148
0.6203101550775387,-0.2724676305090197,-3.044363313638752
0.6303151575787894,-0.3027820120895257,-3.0157760997751524
0.64032016008004,-0.3328032549276526,-2.9842586286216384
0.6503251625812906,-0.3625027356392668,-2.9498713678137407
0.6603301650825413,-0.391852061527046,-2.9126812728022324
0.6703351675837919,-0.42082307058047874,-2.8727617868531268
0.6803401700850426,-0.44938783147586714,-2.8301928410476815
0.6903451725862931,-0.477518643576323,-2.7850608542823947
0.7003501750875437,-0.5051880369317717,-2.7374587332690057
0.7103551775887944,-0.5323687722789501,-2.6874858725344972
0.720360180090045,-0.5590338410414053,-2.6352481544210935
0.7303651825912957,-0.5851564653294986,-2.58085794908626
0.7403701850925463,-0.6107100979404011,-2.524434114502705
0.7503751875937968,-0.6356777831585558,-2.4660465586857976
0.7603801900950475,-0.6600534827753256,-2.4056977740417453
0.7703851925962981,-0.6838180346481757,-2.343464853062614
0.7803901950975487,-0.7069527128419615,-2.2794257351045943
0.7903951975987994,-0.7294395249962857,-2.2136575126294153
0.80040020010005,-0.751261212325498,-2.1462364312043443
0.8104052026013007,-0.772401249618696,-2.077237889502182
0.8204102051025512,-0.7928438452397245,-2.006736439301269
0.8304152076038018,-0.8125739411271756,-1.934805785485481
0.8404202101050525,-0.8315772127943892,-1.8615187860442286
0.8504252126063031,-0.8498400693294521,-1.7869474520724635
0.8604302151075538,-0.8673496533951988,-1.7111629477706691
0.8704352176088044,-0.8840938412292112,-1.6342355904448693
0.880440220110055,-0.9000612426438184,-1.5562348505066228
0.8904452226113057,-0.9152412010260973,-1.4772293514730244
0.9004502251125562,-0.9296237933378719,-1.3972868699667076
0.9104552276138069,-0.9431998301157138,-1.3164743357158402
0.9204602301150575,-0.9559608554709418,-1.2348578315541294
0.9304652326163081,-0.967899147089622,-1.1525025934208166
0.9404702351175588,-0.9790077162325683,-1.0694730103606795
0.9504752376188094,-0.989280307735342,-0.9858326245240361
0.9604802401200601,-0.9987114000082514,-0.9016441311667365
0.9704852426213106,-1.0072962050363525,-0.816969378650171
0.9804902451225612,-1.0150306683794486,-0.7318693684412649
0.9904952476238119,-1.0219114691720907,-0.6464042551124789
1.0005002501250626,-1.027936020123577,-0.5606333463418136
1.0105052526263132,-1.033102467517952,-0.47461510291280407
1.0205102551275638,-1.0374096912140103,-0.3884071387145225
1.0305152576288144,-1.0408573046452911,-0.3020662207415783
1.040520260130065,-1.043445994915285,-0.21564662030320814
1.0505252626313157,-1.0451840108085524,-0.1291553267884532
1.0605302651325663,-1.046071108590963,-0.042609839069311456
1.070535267633817,-1.0461032470728457,0.043954055885160714
1.0805402701350675,-1.045277134042439,0.13049893289464098
1.090545272636318,-1.04359022626589,0.21698572856754333
1.1005502751375686,-1.0410407294872563,0.3033737413010177
1.1105552776388194,-1.0376275984285044,0.3896206312809519
1.12056028014007,-1.0333505367895104,0.4756824204819641
1.1305652826413206,-1.0282099972480598,0.5615134926674141
1.1405702851425712,-1.022207181459848,0.6470665933893966
1.1505752876438218,-1.015344040058479,0.7322928299887417
1.1605802901450726,-1.0076232726554673,0.8171416715950173
1.1705852926463232,-0.9990483278402363,0.901560949126522
1.1805902951475737,-0.9896234031801191,0.9854968552902965
1.1905952976488243,-0.9793534452203582,1.0688939445821146
1.200600300150075,-0.9682441494841054,1.151695133286488
1.2106053026513257,-0.956301960472422,1.233841699476664
1.2206103051525763,-0.9435340716642795,1.315273283014622
1.2306153076538269,-0.9299484255165579,1.395927885551083
1.2406203101550775,-0.9155537134640472,1.4757418705255012
1.250625312656328,-0.9003593759194469,1.5546499631660675
1.2606303151575788,-0.8843756022733653,1.6325852504897111
1.2706353176588294,-0.8676133308943215,1.7094791813020915
1.28064032016008,-0.850084249128743,1.7852615661976095
1.2906453226613306,-0.8318007933009672,1.8598605775593997
1.3006503251625812,-0.8127761487132409,1.9332027495593334
1.310655327663832,-0.7930242496457196,2.0052129781580197
1.3206603301650826,-0.7725597793564702,2.075814521104799
1.3306653326663331,-0.7513981700814676,2.1449289979377526
1.3406703351675837,-0.7295556030345963,2.212476389983695
1.3506753376688343,-0.7070490084076506,2.2783750403581777
1.360680340170085,-0.6838960653703338,2.342541653965491
1.3706853426713357,-0.6601152020702596,2.404891297498654
1.3806903451725863,-0.6357255956329507,2.4653373994394294
1.3906953476738368,-0.6107471721618389,2.523791750058311
1.4007003501750874,-0.585200606738266,2.5801645014145342
1.4107053526763382,-0.5591073234214823,2.6343641673560643
1.4207103551775888,-0.5324870217858085,2.6863226246745544
1.4307153576788394,-0.5053541399700491,2.7360367195466675
1.44072036018009,-0.47773381287111866,2.7834103321922115
1.4507253626813406,-0.4496525217732605,2.8283433296171925
1.4607303651825914,-0.42113703776776634,2.870741951192458
1.470735367683842,-0.39221442175297916,2.9105188086536904
1.4807403701850925,-0.36291202443428894,2.9475928861014165
1.490745372686343,-0.3332574863241356,2.9818895400010015
1.5007503751875937,-0.30327873774200814,3.0133404991826485
1.5107553776888443,-0.27300399881444465,3.041883864841402
1.520760380190095,-0.24246177947503172,3.0674641105371454
1.5307653826913457,-0.21168087946440722,3.0900320821946012
1.5407703851925962,-0.18069038833025602,3.109544998103332
1.5507753876938468,-0.1495196854273128,3.1259664489177394
1.5607803901950974,-0.1181984399173614,3.139266397657066
1.5707853926963482,-0.08675661076923419,3.149421179705393
1.5807903951975988,-0.055224446758814605,3.15641350281164
1.5907953976988494,-0.023632486469033154,3.1602324470895677
1.6008004002001,0.007988441710129579,3.1608734650177768
1.6108054027013505,0.03960721958164426,3.158338381439706
1.6208104052026013,0.0711924391414328,3.152635393563635
1.630815407703852,0.10271240257836578,3.1437790709626814
1.6408204102051025,0.13413512227426716,3.1317903555748043
1.650825412706353,0.16542832080391068,3.1166965617028013
1.6608304152076037,0.19655943093502115,3.098531376014309
1.6708354177088545,0.22749559562827515,3.0773348575418042
1.680840420210105,0.25820366803729744,3.053153437682605
1.6908454227113556,0.2886502115086659,3.026039920198866
1.7008504252126062,0.31880149958190906,2.9960534812175825
1.7108554277138568,0.3486235722985601,2.9632595920649374
1.7208604302151076,0.378097057719836,2.927709433535044
1.7308654327163582,0.40720350564650826,2.889456529099074
1.7408704352176088,0.43591541886159596,2.8485688983803414
1.7508754377188593,0.46420611442027354,2.805115466067842
1.76088044022011,0.4920497236498714,2.75916606191625
1.7708854427213607,0.5194211921498765,2.7107914207459185
1.7808904452226113,0.54629627979193,2.6600631824428826
1.7908954477238619,0.572651560719831,2.607053891958855
1.8009004502251125,0.5984644233495338,2.5518369993112278
1.810905452726363,0.6237130703691489,2.4944868595830725
1.8209104552276139,0.6483765187389432,2.43507873292314
1.8309154577288644,0.6724345996913381,2.373688784545864
1.840920460230115,0.6958679587309126,2.3103940847313527
1.8509254627313656,0.7186580556344009,2.245272608825397
1.8609304652326162,0.7407871644506936,2.178403237239466
1.870935467733867,0.7622383735008376,2.109865755450708
1.8809404702351176,0.7829955853780344,2.039740854001953
1.8909454727363681,0.8030435169476426,1.9681101285017084
1.9009504752376187,0.8223676993471771,1.8950560796241616
1.9109554777388693,0.8409544779863082,1.8206621131091796
1.9209604802401201,0.8587910125468625,1.745012539762307
1.9309654827413707,0.875865276982822,1.6681925754547735
1.9409704852426213,0.8921660595203252,1.5902883411234832
1.9509754877438719,0.907682962657667,1.5113868627710199
1.9609804902451224,0.9224064031652973,1.4315760714656491
1.970985492746373,0.9363276120858233,1.3509448033413143
1.9809904952476238,0.949438634734007,1.2695827995976376
1.9909954977488744,0.9617323306967668,1.1875807064999255
2.001000500250125,0.9732023738331773,1.1050300753791567
2.0110055027513756,0.9838452886592453,1.0220052688035433
2.0210105052526264,0.9936661055142708,0.9384774982185964
2.0310155077538767,1.002658881001307,0.8544694610961283
2.0410205102551275,1.0108164450314536,0.7700177075453907
2.0510255127563783,1.0181322483293487,0.6851597131771371
2.0610305152576287,1.0246003624331705,0.5999338791036125
2.0710355177588795,1.0302154796946381,0.5143795319385416
2.08104052026013,1.0349729132790095,0.42853692379715547
2.0910455227613807,1.0388685971650837,0.3424472322961606
2.1010505252626315,1.0418990861451984,0.25615256055376634
2.111055527763882,1.0440615558252322,0.16969593718967357
2.1210605302651326,1.0453538026246034,0.0831213163250617
2.131065532766383,1.04577424377627,-0.0035264224173823244
2.141070535267634,1.0453219173267305,-0.09020147391349642
2.151075537768884,1.0439964821360226,-0.17685710753761175
2.161080540270135,1.0417982178777245,-0.26344566716258466
2.1710855427713858,1.0387280250389541,-0.349918571159767
2.181090545272636,1.0347874249203697,-0.43622631239902177
2.191095547773887,1.0299785596361688,-0.5223184582487306
2.2011005502751373,1.0243041921140894,-0.6081436505757687
2.211105552776388,1.017767706095409,-0.6936496057455384
2.221110555277639,1.0103731061349455,-0.7787831146219348
2.2311155577788893,1.0021250176010568,-0.8634900425673657
2.24112056028014,0.9930286866756401,-0.9477153294427578
2.2511255627813904,0.9830899803541336,-1.0314029896075307
2.2611305652826412,0.972315386445514,-1.1144961119196297
2.271135567783892,0.9607120135722991,-1.1969368597354968
2.2811405702851424,0.948287591170547,-1.2786664709100835
2.291145572786393,0.9350504694898537,-1.35962525779686
2.3011505752876436,0.9210096195933579,-1.4397526072477922
2.3111555777888944,0.9061746333577356,-1.518986980613369
2.321160580290145,0.8905557234732047,-1.5972659137425758
2.3311655827913955,0.8741637234435228,-1.6745260169829097
2.3411705852926463,0.8570100875859856,-1.7507029751803864
2.3511755877938967,0.8391068910314319,-1.825731547679515
2.3611805902951475,0.8204667845343648,-1.8995462935726495
2.3711855927963983,0.8010976649134218,-1.9721558778088832
2.3811905952976486,0.7810096933685157,-2.0435070114379212
2.3911955977988995,0.7602174477164119,-2.113482927537645
2.40120060030015,0.7387362333925922,-2.1819705487954417
2.4112056028014006,0.7165820834512476,-2.248860487508228
2.4212106053026514,0.693771758565285,-2.314047045582429
2.431215607803902,0.6703227470263239,-2.3774282145339876
2.4412206103051526,0.6462532647446938,-2.438905675488372
2.451225612806403,0.6215822552494413,-2.4983847991805583
2.4612306153076537,0.5963293896883217,-2.55577464595505
2.4712356178089045,0.5705150668278061,-2.6109879657658595
2.481240620310155,0.5441604130530786,-2.663941198176518
2.4912456228114057,0.5172872823680331,-2.7145544723600814
2.501250625312656,0.48991825639528075,-2.7627516070991134
2.511255627813907,0.4620766443761409,-2.8084601107857043
2.5212606303151577,0.4337864831706492,-2.851611181421454
2.531265632816408,0.40507253725755465,-2.8921397066174834
2.541270635317659,0.3759602987343149,-2.9299842635944335
2.551275637818909,0.34647598731710594,-2.9650871191824573
2.56128064032016,0.31664655034081124,-2.9973942298212313
2.571285642821411,0.28649966275903094,-3.026855241559945
2.581290645322661,0.25606372714407866,-3.0534234900573045
2.591295647823912,0.2253678736869763,-3.077056000581541
2.6013006503251623,0.1944419601974644,-3.0977134880103927
2.611305652826413,0.16331657210399053,-3.115360356831125
2.621310655327664,0.13202302245372,-3.129964701140514
2.6313156578289143,0.10059335191252994,-3.1414983046448564
2.641320660330165,0.0690603287650069,-3.1499366406599663
2.6513256628314155,0.037457448914456126,-3.1552588721111747
2.6613306653326663,0.005818935882889509,-3.15744785153333
2.671335667833917,-0.025820259188963357,-3.156490121070799
2.6813406703351674,-0.0574244575416607,-3.1523759124774644
2.6913456728364182,-0.08895725279705158,-3.1450991471167282
2.7013506753376686,-0.1203820733257262,-3.1346593610785605
2.7113556778389194,-0.15168265507910966,-3.1211321487124124
2.72136068034017,-0.18283574690394075,-3.104574273011157
2.7313656828414206,-0.2138090630845973,-3.0850129669909774
2.7413706853426714,-0.24457104853953335,-3.0624789088975333
2.7513756878439217,-0.2750908788212695,-3.037006222205967
2.7613806903451725,-0.305338460116404,-3.008632475620896
2.7713856928464233,-0.3352844292456026,-2.9773986830764207
2.7813906953476737,-0.3649001536636037,-2.943349303736121
2.7913956978489245,-0.3941577314592214,-2.9065322419930526
2.801400700350175,-0.4230299913553368,-2.8669988474697545
2.8114057028514257,-0.451490492708908,-2.824803915018241
2.8214107053526765,-0.4795135255109614,-2.780005684720008
2.831415707853927,-0.5070741103865956,-2.7326658418860332
2.8414207103551776,-0.5341479985949847,-2.6828495170567668
2.851425712856428,-0.5607116720293703,-2.6306252860021466
2.861430715357679,-0.5867423432170705,-2.5760651697215806
2.8714357178589296,-0.6122179553194722,-2.5192446344439636
2.88144072036018,-0.6371171821320342,-2.460242591627669
2.8914457228614308,-0.6614194280842909,-2.399141397960543
2.901450725362681,-0.6851048282398441,-2.33602685535992
2.911455727863932,-0.708154248296372,-2.270988210972605
2.9214607303651827,-0.7305492845856218,-2.2041181571748885
2.931465732866433,-0.7522722640734129,-2.135512831572541
2.941470735367684,-0.7733062443596395,-2.065271817000804
2.9514757378689342,-0.7936350136782638,-1.993498141524411
2.961480740370185,-0.8132430908973244,-1.9202982784375604
2.971485742871436,-0.8321157255189288,-1.8457821462639403
2.981490745372686,-0.8502388976792564,-1.7700631087567182
2.991495747873937,-0.8675993181485615,-1.6932579748985317
3.0015007503751874,-0.8841844283311674,-1.6154869989015104
3.011505752876438,-0.8999824002654719,-1.5368738802072492
3.0215107553776885,-0.9149821366239429,-1.4575457634868363
3.0315157578789393,-0.9291732707131215,-1.3776332386408259
3.04152076038019,-0.9425581095350476,-1.297099574762493
3.0515257628814405,-0.9551404882011495,-1.2158364885244437
3.0615307653826913,-0.9669118034125811,-1.1338896556616698
3.0715357678839417,-0.9778640269113692,-1.051305009347857
3.0815407703851925,-0.9879897107611899,-0.9681286713603905
3.0915457728864433,-0.9972819873473654,-0.8844069520803788
3.1015507753876936,-1.005734569376866,-0.8001863504926443
3.1115557778889444,-1.01334174987831,-0.7155135541857114
3.121560780390195,-1.0200984022019626,-0.6304354393518322
3.1315657828914456,-1.0259999800197375,-0.5449990707869575
3.1415707853926964,-1.0310425173251947,-0.45925170189076225
3.1515757878939468,-1.0352226284335428,-0.3732407746666351
3.1615807903951976,-1.038537507981638,-0.2870139197216657
3.171585792896448,-1.040984930927983,-0.20061895626667292
3.1815907953976987,-1.0425632525527293,-0.11410389211617322
3.1915957978989495,-1.0432714084576755,-0.027516923688407857
3.2016008004002,-1.0431089145662678,0.05909356399466903
3.2116058029014507,-1.0420758671235995,0.14567899730740175
3.221610805402701,-1.0401729426964126,0.23219061402040464
3.231615807903952,-1.0374013981730954,0.3185794633005956
3.2416208104052027,-1.0337630707636847,0.40479640571116815
3.251625812906453,-1.0292603779998646,0.4907921132116009
3.261630815407704,-1.0238963177349667,0.5765170691576722
3.271635817908954,-1.0176744681439702,0.6619215683014315
3.281640820410205,-1.0105989877235018,0.74695571679123
3.291645822911456,-1.0026746152918358,0.8315694321716947
3.301650825412706,-0.993906669988895,0.9157124433837394
3.311655827913957,-0.9843010512762477,0.9993342907645755
3.3216608304152073,-0.9738642389371122,1.0823843260476862
3.331665832916458,-0.9626032930763521,1.1648117123628572
3.341670835417709,-0.9505258541204801,1.2465654242361504
3.3516758379189593,-0.9376401428176567,1.3275942475899105
3.36168084042021,-0.9239545689387566,1.4078544380359674
3.3716858429214605,-0.9094746053075897,1.487340709316991
3.3816908454227113,-0.8942074011186368,1.5659762645286635
3.391695847923962,-0.8781614739412932,1.6436703129383283
