time,theta,theta_dot
0.0,0.7853981633974483,0.0
0.010005002501250625,0.7850442770648554,-0.07073770476746913
0.02001000500250125,0.7839828980777503,-0.14142530958981508
0.030015007503751877,0.7822149450459744,-0.2120127497539906
0.0400200100050025,0.7797415798900764,-0.28244998915481095
0.05002501250625312,0.7765644498285095,-0.3526865881151737
0.060030015007503754,0.7726857437808013,-0.42267166119479155
0.07003501750875438,0.768108192367555,-0.4923538771901918
0.080040020010005,0.7628350679104482,-0.561681459134717
0.09004502251125562,0.7568701844322335,-0.6306021842985245
0.10005002501250625,0.7502178976567385,-0.6990633841885867
0.11005502751375687,0.7428831050088658,-0.767011944548691
0.12006003001500751,0.7348712456145924,-0.8343943053594397
0.13006503251625812,0.7261883003009708,-0.9011564608382502
0.14007003501750875,0.7168407915961279,-0.9672439594393544
0.15007503751875936,0.706835783729266,-1.0326019038537997
0.16008004002001,0.6961810613894205,-1.0971791092400252
0.17008504252126064,0.6848861875324168,-1.160950781592354
0.18009004502251125,0.6729598267952668,-1.2238546644437047
0.19009504752376188,0.6604108650070573,-1.285820309169975
0.2001000500250125,0.6472488020414948,-1.3467785494151399
0.21010505252626313,0.6334837518169045,-1.4066615010912535
0.22011005502751374,0.6191264422962309,-1.4654025623784466
0.23011505752876438,0.6041882154870377,-1.522936413724929
0.24012006003001501,0.5886810274415075,-1.5791990178469877
0.25012506253126565,0.5726174482564419,-1.6341276197289878
0.26013006503251623,0.5560106620732621,-1.6876607466233722
0.27013506753376687,0.5388744670780077,-1.739738208050662
0.2801400700350175,0.521223275501338,-1.7903010957994572
0.29014507253626814,0.5030721136185309,-1.8392917839264329
0.3001500750375187,0.48443662174948404,-1.8866539287563449
0.31015507753876936,0.4653330542587135,-1.9323324688820263
0.32016008004002,0.44577827955535476,-1.9762736251643869
0.33016508254127064,0.4257897800931625,-2.018424900732416
0.3401700850425213,0.4053856523705103,-2.0587350809831797
0.35017508754377186,0.38458460693039087,-2.0971542335818225
0.3601800900450225,0.3634059683604162,-2.1336337084615673
0.37018509254627313,0.34186967529281714,-2.168126137823714
0.38019009504752377,0.3199962804044437,-2.200585436137641
0.39019509754877435,0.29780695041676525,-2.2309668001408047
0.400200100050025,0.2753234660958698,-2.2592267088387383
0.4102051025512756,0.2525682222524648,-2.2853229235050554
0.42021010505252626,0.22956422774187657,-2.3092144876814444
0.4302151075537769,0.20633510546405093,-2.3308617271776746
0.4402201100550275,0.18290509236355235,-2.350226250071591
0.4502251125562781,0.15929903942956458,-2.3672709467091186
0.46023011505752875,0.13553655205457554,-2.38198520074734
0.4702351175587794,0.11163411045218335,-2.3943784514133677
0.48024012006003003,0.08761750044629306,-2.404425113390748
0.4902451225612806,0.06351237090578465,-2.4121029323821928
0.5002501250625313,0.03934410167336673,-2.417393538631674
0.5102551275637819,0.015137803565578062,-2.420282446924425
0.5202601300650325,-0.009081681627214316,-2.420759056586939
0.5302651325662832,-0.03328978114081407,-2.4188166514869716
0.5402701350675337,-0.05746219123719501,-2.4144524000335394
0.5502751375687843,-0.08157487720450254,-2.4076673551769194
0.560280140070035,-0.10560407335705291,-2.398466454408649
0.5702851425712856,-0.1295262830353323,-2.386858519761528
0.5802901450725363,-0.15331827860599895,-2.3728562578096164
0.5902951475737869,-0.1769571014618807,-2.3564762596682356
0.6003001500750375,-0.2004200620219771,-2.3377390009939676
0.6103051525762881,-0.22368473973145853,-2.3166688419846553
0.6203101550775387,-0.24672898306166552,-2.293294027379403
0.6303151575787894,-0.26953090951011016,-2.2676466864585763
0.64032016008004,-0.2920689056004747,-2.239762833043801
0.6503251625812906,-0.3143216268826127,-2.2096823654979647
0.6603301650825413,-0.3362679979325488,-2.177449066725215
0.6703351675837919,-0.35788721235247745,-2.1431106041709618
0.6803401700850426,-0.37915873277076517,-2.1067185298218747
0.6903451725862931,-0.4000622908419482,-2.0683282802058858
0.7003501750875437,-0.4205778872467344,-2.0279991763921865
0.7103551775887944,-0.44068579169200217,-1.9857944239912304
0.720360180090045,-0.4603665429108006,-1.9417811131547322
0.7303651825912957,-0.47960094866235015,-1.8960302185756661
0.7403701850925463,-0.4983700857320409,-1.84861659948827
0.7503751875937968,-0.5166552999314356,-1.79961899966804
0.7603801900950475,-0.5344382060982661,-1.749120047431734
0.7703851925962981,-0.551700688096436,-1.697206255637373
0.7803901950975487,-0.5684248988160194,-1.6439680216842363
0.7903951975987994,-0.5846038618592362,-1.589435606608854
0.80040020010005,-0.6002360867989607,-1.533594315413736
0.8104052026013007,-0.61530759999492,-1.4764984459953954
0.8204102051025512,-0.6298049961998192,-1.4182026908458245
0.8304152076038018,-0.6437155065949858,-1.3587617520090485
0.8404202101050525,-0.6570269987903693,-1.2982303410811258
0.8504252126063031,-0.6697279768245411,-1.2366631792101515
0.8604302151075538,-0.6818075811646948,-1.1741149970962517
0.8704352176088044,-0.6932555887066456,-1.1106405349915889
0.880440220110055,-0.7040624127748314,-1.0462945427003587
0.8904452226113057,-0.714219103122312,-0.9811317795787895
0.9004502251125562,-0.7237173459307686,-0.9152070145351465
0.9104552276138069,-0.7325494638105052,-0.8485750260297262
0.9204602301150575,-0.7407084158004474,-0.7812906020748612
0.9304652326163081,-0.7481877973681432,-0.7134085402349168
0.9404702351175588,-0.7549818404097622,-0.6449836476262918
0.9504752376188094,-0.7610854132500964,-0.5760707409174222
0.9604802401200601,-0.7664940206425597,-0.5067246463287731
0.9704852426213106,-0.7712038037691878,-0.437000199632849
0.9804902451225612,-0.7752115402406389,-0.3669522461541843
0.9904952476238119,-0.778514644096193,-0.29663564076934823
1.0005002501250626,-0.7811111658037521,-0.22610524790694586
1.0105052526263132,-0.7829997922598402,-0.1554159415476153
1.0205102551275638,-0.7841798467896037,-0.0846226052240282
1.0305152576288144,-0.7846512891468105,-0.013780132020890568
1.040520260130065,-0.784414715513851,0.057056575425057376
1.0505252626313157,-0.7834713585017373,0.12783260492504356
1.0605302651325663,-0.7818230871501037,0.19849303473825652
1.070535267633817,-0.7794724069272068,0.2689829335718559
1.0805402701350675,-0.7764224597299245,0.3392473605809654
1.090545272636318,-0.7726771350687439,0.40923645628361704
1.1005502751375686,-0.7682409578422983,0.4789513417785799
1.1105552776388194,-0.7631158839425736,0.5483488433285842
1.12056028014007,-0.7573039398349323,0.6173694357617431
1.1305652826413206,-0.7508078317941318,0.6859537436045111
1.1405702851425712,-0.743630945904325,0.7540425410816786
1.1505752876438218,-0.7357773480590599,0.8215767521163726
1.1605802901450726,-0.7272517839612795,0.8884974503300593
1.1705852926463232,-0.7180596791233229,0.954745859042537
1.1805902951475737,-0.7082071388669237,1.0202633512719455
1.1905952976488243,-0.6977009483232107,1.0849914497347601
1.200600300150075,-0.6865485724327084,1.1488718268457938
1.2106053026513257,-0.674758155945336,1.2118463047181973
1.2206103051525763,-0.6623385234204088,1.273856855163455
1.2306153076538269,-0.6492991792266365,1.3348455996913913
1.2406203101550775,-0.6356503075421246,1.3947548095101672
1.250625312656328,-0.6214027723543734,1.4535269055262805
1.2606303151575788,-0.6065681174602784,1.5111044583445679
1.2706353176588294,-0.5911585664661313,1.5674301882681982
1.28064032016008,-0.575187022787618,1.622446965298682
1.2906453226613306,-0.5586670696498203,1.6760978091358651
1.3006503251625812,-0.5416129700872144,1.7283258891779307
1.310655327663832,-0.5240396669436724,1.7790745245214004
1.3206603301650826,-0.5059627828724622,1.8282871839611288
1.3306653326663331,-0.4873986203362459,1.8759074859903113
1.3406703351675837,-0.4683641616070813,1.9218791988004793
1.3506753376688343,-0.44887706876642125,1.9661462402815022
1.360680340170085,-0.4289556837051137,2.0086526780215848
1.3706853426713357,-0.408619028123403,2.0493427293072686
1.3806903451725863,-0.38788680353092736,2.088160761123434
1.3906953476738368,-0.3667793912467211,2.125051290153297
1.4007003501750874,-0.345317852399213,2.159958982778413
1.4107053526763382,-0.32352392792622736,2.1928286550786713
1.4207103551775888,-0.30142003857498495,2.2236052728323
1.4307153576788394,-0.2790260079784632,2.252248205586531
1.44072036018009,-0.25635310072980566,2.2787582086304297
1.4507253626813406,-0.2334240234706735,2.303091206743731
1.4607303651825914,-0.21026266328895368,2.3252020982979436
1.470735367683842,-0.18689287142262334,2.3450500003517667
1.4807403701850925,-0.16333846325974688,2.3625982486510937
1.490745372686343,-0.1396232183384778,2.377814397629008
1.5007503751875937,-0.1157708803470584,2.3906702204057857
1.5107553776888443,-0.09180515712381959,2.4011417087888955
1.520760380190095,-0.0677497206571806,2.4092090732729976
1.5307653826913457,-0.04362820708565082,2.4148567430399437
1.5407703851925962,-0.019464216697826886,2.418073365958778
1.5507753876938468,0.004718686067605615,2.418851808585737
1.5607803901950974,0.028896972621872075,2.4171891561642487
1.5707853926963482,0.05304715022610973,2.413086712624933
1.5807903951975988,0.07714576199136575,2.406550000585603
1.5907953976988494,0.10116938687859989,2.3975887613512614
1.6008004002001,0.12509463969868306,2.3862169549141057
1.6108054027013505,0.148898171112397,2.3724527599535237
1.6208104052026013,0.17255666763043576,2.356318573836095
1.630815407703852,0.19604685161340268,2.3378410126155926
1.6408204102051025,0.21934548127181425,2.3170509110329807
1.650825412706353,0.24242935066609744,2.2939833225164143
1.6608304152076037,0.26527528970659103,2.268677519181243
1.6708354177088545,0.28786016415354493,2.241176991830006
1.680840420210105,0.3101608756171194,2.2115294499524363
1.6908454227113556,0.33215436155738737,2.1797868217254575
1.7008504252126062,0.35381759528433204,2.1460052540131858
1.7108554277138568,0.37512758595784895,2.11024511236693
1.7208604302151076,0.3960613785877441,2.0725709810251884
1.7308654327163582,0.4166031399903013,2.0330287006338255
1.7408704352176088,0.436744057122288,1.9916390978458713
1.7508754377188593,0.45646501247302,1.9484545769977797
1.76088044022011,0.47574732781629775,1.9035286041485868
1.7708854427213607,0.49457297352574775,1.8569150686326161
1.7808904452226113,0.5129245685748214,1.8086682830594798
1.7908954477238619,0.530785380536797,1.7588429833140748
1.8009004502251125,0.5481393255847786,1.7074943285565853
1.810905452726363,0.5649709684916959,1.6546779012224828
1.8209104552276139,0.5812655226303051,1.6004497070225243
1.8309154577288644,0.5970088499731869,1.5448661749427575
1.840920460230115,0.6121874610927494,1.4879841572445132
1.8509254627313656,0.6267885151612257,1.4298609294644105
1.8609304652326162,0.6407998199506755,1.3705541904143546
1.870935467733867,0.6542098318329839,1.310122062181538
1.8809404702351176,0.6670076557798619,1.248623090128442
1.8909454727363681,0.6791830453628465,1.1861162428928325
1.9009504752376187,0.6907264027533004,1.1226609123877627
1.9109554777388693,0.701628778722413,1.058316913801573
1.9209604802401201,0.7118818726411987,0.9931444855978893
1.9309654827413707,0.721478032480498,0.9272042895156285
1.9409704852426213,0.7304102548109773,0.8605574105689906
1.9509754877438719,0.7386721848031295,0.793265357047463
1.9609804902451224,0.7462581162272723,0.725390060515821
1.970985492746373,0.7531629914535505,0.656993875814126
1.9809904952476238,0.7593824014519339,0.5881395810577255
1.9909954977488744,0.7649125857922185,0.518890377637258
2.001000500250125,0.7697504326440264,0.4493098902186432
2.0110055027513756,0.7738934787768049,0.37946216674309396
2.0210105052526264,0.7773414272415892,0.3094006421058003
2.0310155077538767,0.7800990312403753,0.23912830039880073
2.0410205102551275,0.7821629389457834,0.16868565795297047
2.0510255127563783,0.7835293189304376,0.09812054361209033
2.0610305152576287,0.7841950189312356,0.027481274694145796
2.0710355177588795,0.784157565849348,-0.04318334300868276
2.08104052026013,0.7834151657502194,-0.11382401522999808
2.0910455227613807,0.7819667038635669,-0.18439095922921034
2.1010505252626315,0.7798117445833815,-0.2548339037915165
2.111055527763882,0.7769505314679273,-0.32510208922790895
2.1210605302651326,0.7733839872397412,-0.3951442673751845
2.131065532766383,0.7691137137856343,-0.46490870159592335
2.141070535267634,0.7641419921566903,-0.5343431667785143
2.151075537768884,0.7584717825682666,-0.6033949493371279
2.161080540270135,0.7521067243999934,-0.6720108472117434
2.1710855427713858,0.7450511361957746,-0.7401371698681265
2.181090545272636,0.7373100156637876,-0.8077197382978378
2.191095547773887,0.7288890396764822,-0.8747038850182431
2.2011005502751373,0.719794564270583,-0.9410344540724915
2.211105552776388,0.7100336246470857,-1.0066558010295394
2.221110555277639,0.6996139351712615,-1.0715117929841305
2.2311155577788893,0.688543889372654,-1.1355458085568029
2.24112056028014,0.6768325599450793,-1.1987007378938992
2.2511255627813904,0.6644896987466284,-1.2609189826675473
2.2611305652826412,0.651525736799664,-1.32214245607568
2.271135567783892,0.6379517842908229,-1.382312582842019
2.2811405702851424,0.6237796305710159,-1.4413702992160808
2.291145572786393,0.6090217441554252,-1.4992560529731849
2.3011505752876436,0.5936912727235086,-1.5559098034144367
2.3111555777888944,0.5778020431189946,-1.6112710213667476
2.321160580290145,0.561368561349887,-1.665278689182816
2.3311655827913955,0.5444060125884631,-1.7178713007411353
2.3411705852926463,0.5269302611712713,-1.7689868614460034
2.3511755877938967,0.5089578505991361,-1.818562888227504
2.3611805902951475,0.490506003537152,-1.866536409541525
2.3711855927963983,0.47159262181468975,-1.9128439653697429
2.3811905952976486,0.452228487068164,-1.957473456577838
2.3911955977988995,0.4324248689245563,-2.000403941557345
2.40120060030015,0.4122011093451994,-2.041561202896643
2.4112056028014006,0.39157679767158504,-2.0808749765014927
2.4212106053026514,0.37057177062474533,-2.1182789515993794
2.431215607803902,0.34920611230524984,-2.1537107707395187
2.4412206103051526,0.3275001541932028,-2.18711202979286
2.451225612806403,0.3054744751482499,-2.218428277952078
2.4612306153076537,0.2831499014095704,-2.247609017731582
2.4712356178089045,0.2605475065958842,-2.274607704967508
2.481240620310155,0.23768861170544858,-2.299381748817721
2.4912456228114057,0.21459478511605556,-2.321892511761821
2.501250625312656,0.1912878425850384,-2.342105309601133
2.511255627813907,0.16778984724926416,-2.3599894114587148
2.5212606303151577,0.1441231096251404,-2.3755180397793527
2.531265632816408,0.12031018760861234,-2.388668370329564
2.541270635317659,0.09637388647515926,-2.3994215321975956
2.551275637818909,0.07233725887980275,-2.407762607793424
2.56128064032016,0.048223604857097035,-2.413680632848757
2.571285642821411,0.024056471821137793,-2.4171685964170306
2.581290645322661,-0.00014034543444235714,-2.4182234408734122
2.591295647823912,-0.024342804736476098,-2.4168460619147982
2.6013006503251623,-0.048526616532254485,-2.4130413085598166
2.611305652826413,-0.07266724388953522,-2.406817983148823
2.621310655327664,-0.09673990249653525,-2.398188841343905
2.6313156578289143,-0.12071956066193384,-2.3871705921288795
2.641320660330165,-0.14458093931487642,-2.3737838978092927
2.6513256628314155,-0.16829851200496587,-2.3580533740124228
2.6613306653326663,-0.19184650490227234,-2.340007589687275
2.671335667833917,-0.21519889679732512,-2.319679067104587
2.6813406703351674,-0.2383294191011162,-2.2971042818568264
2.6913456728364182,-0.2612115558451022,-2.272323662858188
2.7013506753376686,-0.2838191799883066,-2.2453810074245975
2.7113556778389194,-0.3061444217879068,-2.216305717173314
2.72136068034017,-0.3281724191213657,-2.185133001620629
2.7313656828414206,-0.3498810340392915,-2.1519060419924996
2.7413706853426714,-0.37124875926106504,-2.116669175826376
2.7513756878439217,-0.3922547181748337,-2.0794678969712126
2.7613806903451725,-0.4128786648375185,-2.040348855587455
2.7713856928464233,-0.4331009839748078,-1.999359858147052
2.7813906953476737,-0.4529026909811602,-1.9565498674334498
2.7913956978489245,-0.47226543191980674,-1.9119690025415872
2.801400700350175,-0.4911714835227455,-1.8656685388779086
2.8114057028514257,-0.5096037531907475,-1.8177009081603481
2.8214107053526765,-0.5275457789933515,-1.768119698418344
2.831415707853927,-0.5449817296688668,-1.7169796539928321
2.8414207103551776,-0.5618964046243746,-1.6643366755362399
2.851425712856428,-0.5782752339357233,-1.6102478200125014
2.861430715357679,-0.5941042783475345,-1.5547713006970392
2.8714357178589296,-0.6093702292731971,-1.4979664871767815
2.88144072036018,-0.6240604087948711,-1.4398939053501532
2.8914457228614308,-0.6381627696634876,-1.3806152374270708
2.901450725362681,-0.6516658952987457,-1.3201933219289579
2.911455727863932,-0.664558999789117,-1.2586921536887261
2.9214607303651827,-0.6768319278918415,-1.1961768838507922
2.931465732866433,-0.6884751550329289,-1.1327138198710716
2.941470735367684,-0.699479787307161,-1.0683704255169688
2.9514757378689342,-0.7098375614780873,-1.003215320867398
2.961480740370185,-0.7195408449780296,-0.9373182823127579
2.971485742871436,-0.728582635908078,-0.8707502425549567
2.981490745372686,-0.7369565630380934,-0.8035832906073979
2.991495747873937,-0.7446568858067073,-0.7358906717949756
3.0015007503751874,-0.75167849432132,-0.6677467877540924
3.011505752876438,-0.7580207292895291,-0.5991939297904548
3.0215107553776885,-0.763686067533052,-0.5302217862667977
3.0315157578789393,-0.7686683887490928,-0.46087412177368964
3.04152076038019,-0.7729619527074928,-0.39119722617709346
3.0515257628814405,-0.7765616792813296,-0.3212378958734304
3.0615307653826913,-0.7794631484469184,-0.25104343378957084
3.0715357678839417,-0.7816626002838106,-0.18066164938285606
3.0815407703851925,-0.7831569349747945,-0.11014085864107293
3.0915457728864433,-0.783943712805895,-0.03952988408247693
3.1015507753876936,-0.784021154166374,0.031121945244219074
3.1115557778889444,-0.7833881395487298,0.10176479375985281
3.121560780390195,-0.7820442095486976,0.17234831935479056
3.1315657828914456,-0.7799895648652494,0.24282167338895289
3.1415707853926964,-0.7772250663005937,0.31313350069179346
3.1515757878939468,-0.7737522347601764,0.3832319395623063
3.1615807903951976,-0.7695732512526792,0.4530646217690375
3.171585792896448,-0.7646909568900212,0.5225786725500612
3.1815907953976987,-0.7591088528873579,0.5917207106130058
3.1915957978989495,-0.7528311005630814,0.6604368481350331
3.2016008004002,-0.7458625213388216,0.7286726907628451
3.2116058029014507,-0.7382085967394435,0.7963733376126949
3.221610805402701,-0.7298754683930503,0.8634833812703662
3.231615807903952,-0.7208699380309807,0.9299469077911944
3.2416208104052027,-0.7111994674878109,0.9957074967000483
3.251625812906453,-0.7008721787013543,1.06070822099134
3.261630815407704,-0.6898968537126596,1.1248916471290284
3.271635817908954,-0.6782829346660139,1.1881998350466065
3.281640820410205,-0.6660405238089391,1.2505743381471168
3.291645822911456,-0.6531803834921955,1.3119562033031371
3.301650825412706,-0.6397139361697802,1.3722859708567865
3.311655827913957,-0.6256532643989252,1.4315036746197316
3.3216608304152073,-0.6110111108401016,1.4895488418731737
3.331665832916458,-0.5958008782570149,1.5463604933678636
3.341670835417709,-0.5800366295166091,1.6018771433240862
3.3516758379189593,-0.5637330724060376,1.6560369249681615
3.36168084042021,-0.5468986453418992,1.7088299165104528
3.3716858429214605,-0.5295430803840067,1.7602234830911199
3.3816908454227113,-0.5116820681811511,1.8101382906383876
